#V_tip energy
+0.00 2.956896e+10
+0.01 2.955241e+10
+0.02 2.953718e+10
+0.03 2.952327e+10
+0.04 2.951067e+10
+0.05 2.949939e+10
+0.06 2.948942e+10
+0.07 2.948078e+10
+0.08 2.947345e+10
+0.09 2.946743e+10
+0.10 2.946274e+10
+0.11 2.945936e+10
+0.12 2.945730e+10
+0.13 2.945655e+10
+0.14 2.945713e+10
+0.15 2.945902e+10
+0.16 2.946223e+10
+0.17 2.946675e+10
+0.18 2.947260e+10
+0.19 2.947976e+10
+0.20 2.948824e+10
